SpectraSmart Spectrum 2.1.19.25224
--------- Device Information -----------
Spectrum Name :  光谱_0
Saving Time :  2024/11/05 16:55:36
Spectro-Module Model Name : SE1040-VNIR
Spectro-Module Serial Number : OS361AC55028209
Wavelength Start : 350
Wavelength End : 1020
Wavelength Unit : Wavelength(nm)
Spectrum Unit : 
-----------Spectrum Setting ------------
Integration Time : 900000us
Average : 1
Boxcar : 0
Background removal  : enabled
linearity correction  : enabled
SC  : disabled
Intensity correction  : disabled
savitzky-golay  : disabled
---------------BEGIN--------------------
Wavelength(nm)          Intensity(Counts)
350.32       -104.6475
350.69        42.01385
351.06       -143.8676
351.43        98.55035
351.80       -248.2809
352.17         41.0747
352.54          26.014
352.91       -81.66431
353.28        41.16914
353.65        173.3596
354.02        36.68271
354.39        80.13974
354.76        -70.8042
355.13         251.976
355.50       -105.1409
355.87         -15.651
356.24       -56.10767
356.60       -415.7275
356.97       -51.75098
357.34       -129.5974
357.71       -35.63098
358.08        4.988144
358.45        8.461399
358.82       -80.87744
359.19       -99.29761
359.56         13.1238
359.93       -125.0742
360.30       -40.77087
360.67        134.5022
361.04       -105.9741
361.41       -108.3508
361.78       -102.6376
362.15       -1.494263
362.52       -622.8174
362.89       -25.20093
363.26        11.23998
363.63        49.53894
364.00       -43.94421
364.37       -217.2441
364.74        83.93549
365.11        85.32518
365.48        8.705543
365.85        8.952943
366.22        -182.864
366.59         -61.271
366.96       -11.02429
367.33        -79.6709
367.70       -13.96436
368.07       -75.15417
368.45        64.46022
368.82       -35.45764
369.19        187.5042
369.56       -69.81091
369.93        -75.5376
370.30       -344.1709
370.67         37.7098
371.04       -36.70764
371.41       -80.48767
371.78        68.15276
372.15        168.6635
372.52        24.28603
372.89        70.99693
373.26        10.22166
373.63       -41.35437
374.00       -253.3875
374.37        89.24773
374.74        2.595212
375.11        5.815114
375.48        193.3199
375.85        54.87381
376.22        109.2523
376.59        -11.5376
376.96       -229.9309
377.33        29.21689
377.70       -10.65759
378.07        74.36559
378.44        -51.6842
378.81        28.75458
379.18        55.98378
379.55       -5.747559
379.92       -68.92432
380.30        30.33244
380.67        -107.134
381.04         39.2112
381.41        -74.5675
381.78        39.69112
382.15        105.9481
382.52        7.431017
382.89       -26.07092
383.26       -35.63757
383.63         13.6478
384.00       -93.12097
384.37       -26.11755
384.74        46.48305
385.11        45.45258
385.48       -49.55762
385.85        47.89624
386.22       -20.07776
386.59        13.82146
386.96        81.98608
387.33       -58.40088
387.70        75.44031
388.07        96.32121
388.44        30.96539
388.82       -4.284302
389.19        44.26913
389.56       -61.34766
389.93       -42.39758
390.30        92.51332
390.67       -24.20764
391.04         118.076
391.41        74.44494
391.78       -28.87769
392.15       -17.31433
392.52       -34.51099
392.89        53.24862
393.26       0.6820793
393.63        111.9177
394.00        57.22917
394.37       -57.58423
394.74       -108.9542
395.11        269.9511
395.48        67.41951
395.85       -146.2441
396.22       -56.79102
396.59         23.6266
396.96        48.34642
397.33       -162.8174
397.70        29.73194
398.08       -17.97107
398.45        40.08554
398.82        40.07681
399.19       -36.28772
399.56        116.6889
399.93       -14.02087
400.30       -190.6106
400.67       -156.0809
401.04        231.6676
401.41       -52.46423
401.78        -558.384
402.15        93.01694
402.52       -12.37427
402.89       -132.6941
403.26       -18.69104
403.63       -140.6609
404.00        -172.021
404.37        71.72729
404.74        76.49433
405.11        72.52525
405.48       -117.8508
405.85        -90.0708
406.22       -88.74756
406.59        35.03387
406.96        12.00533
407.33        72.84318
407.70        69.81055
408.07       -6.254395
408.44        51.11988
408.81        66.37135
409.18        35.82283
409.55       -105.2175
409.92        52.68629
410.29       -126.6042
410.66        118.2056
411.03       -109.1406
411.40        84.67745
411.77       -22.11755
412.14        42.88541
412.51        68.91244
412.88        71.24425
413.25        80.43135
413.62        201.1514
413.99        130.5699
414.36        58.33628
414.73        65.16402
415.10        223.3865
415.47        80.56686
415.84        164.2476
416.21        31.98425
416.58          123.84
416.95        18.95811
417.32        134.2605
417.69        138.1046
418.06        115.9821
418.43        180.8719
418.80        161.6643
419.17        177.3808
419.54        214.7178
419.91        219.8063
420.28        217.5436
420.65        201.1044
421.02        288.7331
421.39        353.0031
421.76         394.977
422.13        345.3043
422.50        121.0483
422.87         252.671
423.24        317.5845
423.61        435.8097
423.98         440.018
424.35        500.9735
424.72        414.8204
425.09        479.1799
425.46        397.3338
425.83        716.5469
426.20        340.2601
426.57        520.6245
426.94        704.2302
427.31        676.6877
427.68        746.6024
428.05        694.0189
428.42        768.0923
428.79        845.7046
429.15        892.6367
429.52        927.9417
429.89        1091.499
430.26        1111.694
430.63        998.4602
431.00        1183.807
431.37        1261.981
431.74            1054
432.11        1391.872
432.48        1230.316
432.85        1373.139
433.22        1411.531
433.59        1580.964
433.96        1558.245
434.33        1726.695
434.69        1916.677
435.06        1951.729
435.43        2016.678
435.80        2282.821
436.17          2143.4
436.54        2269.887
436.91        2409.068
437.28        2484.226
437.65        2630.593
438.02        2721.691
438.39        2884.049
438.76        3114.461
439.12        3303.439
439.49        3529.116
439.86        3553.558
440.23        3753.942
440.60        4025.471
440.97         4381.97
441.34        4465.229
441.71        5110.527
442.08        4945.165
442.44        5484.732
442.81        5719.275
443.18        6075.557
443.55        6335.648
443.92         6764.22
444.29        7586.744
444.66        7849.832
445.03        8024.565
445.39        8339.489
445.76        8927.674
446.13        9517.374
446.50        9566.284
446.87        10295.07
447.24        10790.77
447.61        10745.41
447.98        11137.72
448.34         11537.2
448.71        12319.14
449.08        12098.85
449.45        12499.35
449.82        12963.64
450.19        13302.65
450.55        13607.82
450.92        13260.51
451.29        13486.87
451.66        14039.75
452.03        13601.05
452.40        13690.29
452.76        14205.42
453.13        13926.41
453.50        13593.38
453.87        13848.94
454.24        13821.57
454.61        13408.96
454.97        13041.73
455.34        13332.49
455.71        13031.87
456.08        12913.42
456.45        12808.35
456.81        12109.68
457.18        12426.05
457.55        12326.66
457.92        12222.18
458.29        11544.02
458.65        11451.74
459.02        11719.37
459.39        11103.33
459.76        10911.01
460.13        11020.46
460.49        10768.43
460.86        10748.51
461.23        10447.29
461.60        10215.88
461.97        10500.84
462.33        10180.72
462.70        10282.75
463.07        10009.93
463.44        10170.84
463.80        10262.35
464.17        10102.54
464.54        9898.686
464.91        9882.307
465.27        9865.497
465.64        9622.646
466.01        9912.074
466.38        9615.766
466.74        9498.269
467.11         9784.41
467.48        9623.409
467.85        9675.962
468.21        9170.071
468.58        9234.217
468.95        8639.179
469.32        9155.578
469.68        8748.484
470.05          8867.8
470.42        8763.051
470.78        8335.997
471.15        8309.528
471.52        7952.044
471.89        8325.927
472.25        7921.507
472.62        7901.809
472.99        7936.443
473.35        7412.737
473.72        7791.874
474.09        7328.434
474.45          7359.5
474.82         7085.13
475.19         7100.58
475.55        7200.368
475.92        7074.992
476.29         7125.17
476.66        7066.596
477.02        6608.794
477.39         6941.91
477.76        6814.264
478.12        6685.076
478.49        6717.567
478.86        6932.359
479.22        7588.372
479.59         6876.25
479.96        6734.868
480.32        6847.957
480.69        6687.671
481.05        6627.066
481.42        7010.196
481.79        6721.236
482.15        6801.356
482.52        6657.712
482.89        6856.893
483.25        7137.688
483.62        6812.302
483.99        6796.707
484.35        7062.162
484.72        7336.549
485.08        6816.907
485.45        7154.577
485.82        7059.488
486.18        6996.736
486.55        7131.529
486.91        7293.054
487.28        7320.239
487.65        7263.976
488.01        7394.783
488.38         7641.44
488.74        7325.477
489.11        7343.149
489.48        7365.298
489.84        7487.647
490.21        7656.351
490.57        7723.256
490.94        7564.861
491.30        7647.749
491.67        7850.452
492.04        7778.708
492.40        7930.911
492.77        7917.509
493.13        7867.003
493.50        8096.781
493.86        8013.423
494.23        8149.509
494.60        8191.705
494.96        8344.419
495.33        8458.302
495.69        8085.454
496.06        8319.271
496.42        8434.395
496.79        8285.533
497.15        8567.513
497.52        8770.534
497.88        8807.596
498.25        8880.715
498.61        9310.766
498.98        8876.421
499.34        8719.601
499.71        8948.625
500.07        8965.693
500.44         9002.62
500.80        9240.088
501.17        9346.692
501.53        9322.547
501.90         9378.39
502.26        9217.921
502.63        9691.636
502.99        9717.851
503.36        10126.71
503.72        9955.184
504.09        10036.61
504.45        9827.846
504.82        10203.03
505.18        9880.081
505.55        10116.94
505.91        10431.45
506.28        10204.35
506.64        10373.67
507.00        10689.72
507.37         10649.4
507.73        10849.18
508.10        10697.86
508.46        10682.03
508.83        10912.26
509.19        10718.36
509.55        10942.58
509.92        11145.69
510.28        11244.68
510.65         11415.8
511.01        11405.15
511.38         11358.9
511.74        11508.23
512.10        12130.16
512.47        11947.09
512.83        11627.01
513.20        11746.43
513.56        12046.61
513.92        11993.38
514.29        12063.26
514.65        11676.62
515.02        12535.04
515.38        12704.27
515.74        12571.68
516.11        12309.96
516.47        12939.93
516.83        12581.56
517.20        13122.59
517.56        12883.17
517.93        13151.85
518.29        12962.74
518.65        13251.09
519.02        13522.54
519.38        13390.74
519.74        13318.67
520.11        13490.57
520.47        13735.71
520.83        13774.62
521.20        13528.57
521.56        13909.27
521.92         13963.3
522.29        14081.69
522.65         14015.4
523.01        14270.22
523.38        14270.76
523.74        14535.71
524.10        14088.57
524.47        14791.54
524.83         14614.6
525.19        14602.25
525.55        14669.64
525.92        14904.37
526.28        14946.69
526.64        14601.75
527.01        15051.73
527.37        15241.52
527.73        15001.59
528.09        15424.04
528.46        15431.89
528.82        15398.55
529.18        15941.82
529.55        15543.09
529.91        15449.47
530.27        16037.41
530.63        15957.14
531.00         16132.3
531.36        16065.33
531.72        16120.69
532.08        16248.87
532.45        16324.69
532.81         16281.7
533.17        16872.37
533.53        16299.09
533.89        16823.17
534.26        16951.73
534.62        16956.25
534.98        16789.78
535.34        17267.41
535.71        17062.56
536.07        16897.48
536.43        17117.66
536.79        17248.91
537.15        17245.93
537.52        17291.57
537.88        17524.22
538.24        17475.88
538.60        17789.49
538.96        17834.22
539.33        17835.91
539.69        17967.68
540.05        17898.73
540.41        18143.53
540.77        18193.98
541.13         18351.8
541.50        18291.81
541.86        18726.65
542.22        18278.71
542.58        18814.24
542.94        18583.57
543.30        18947.92
543.66         18845.5
544.03        18776.84
544.39        18748.36
544.75        18913.29
545.11        18407.57
545.47         18916.3
545.83        18941.78
546.19        19852.86
546.55        18893.45
546.92        19278.96
547.28        19296.88
547.64        19110.92
548.00        19196.76
548.36        19671.19
548.72        19321.32
549.08        19226.43
549.44        19986.75
549.80         19606.1
550.16        19920.37
550.53        19539.39
550.89        19851.12
551.25        19977.46
551.61        19674.83
551.97        20095.87
552.33        19780.52
552.69        20120.42
553.05         20172.2
553.41        19970.62
553.77        20056.87
554.13        20406.58
554.49        20109.47
554.85        19941.76
555.21        20066.28
555.57        20219.35
555.93        20072.34
556.29        20059.89
556.65        20100.55
557.01        20552.76
557.37        20178.17
557.73        20261.61
558.09        20140.31
558.46        20574.13
558.82        20521.19
559.18        20744.29
559.54        20580.59
559.90        20455.21
560.26        20504.92
560.61        20012.11
560.97        20278.39
561.33        20382.94
561.69        20623.25
562.05        20635.94
562.41        19919.92
562.77        20468.88
563.13         20523.8
563.49        20143.03
563.85        19861.18
564.21        19777.15
564.57        20205.13
564.93        20102.31
565.29        20469.48
565.65         20262.1
566.01        20120.76
566.37        20297.11
566.73        20040.56
567.09        20318.26
567.45         19932.8
567.81        19938.64
568.17        19865.49
568.52        19868.85
568.88        19833.46
569.24        19464.73
569.60        19501.87
569.96         19860.8
570.32        19712.32
570.68        19334.05
571.04        19382.76
571.40        19055.88
571.76        19550.95
572.11        19490.69
572.47        19708.62
572.83         19450.6
573.19        19287.36
573.55        19280.28
573.91        19042.55
574.27         18898.6
574.63        18853.18
574.98        19260.24
575.34        18982.06
575.70        18871.88
576.06        19177.36
576.42        18946.38
576.78        18790.52
577.14        18812.28
577.49        18348.34
577.85        18780.32
578.21         18770.8
578.57        18542.07
578.93        18457.68
579.28        18364.84
579.64        18228.99
580.00        18055.27
580.36        17778.68
580.72        18010.15
581.08        18037.65
581.43        17646.21
581.79        17778.72
582.15        17506.26
582.51        17793.43
582.86        17422.61
583.22        17577.47
583.58         17663.7
583.94        17142.36
584.30        16972.19
584.65        16849.97
585.01        17278.97
585.37        17285.95
585.73        17052.83
586.08        16942.48
586.44        16851.75
586.80        17003.42
587.16        16695.74
587.51        16484.63
587.87        16818.86
588.23        16721.11
588.59        16460.43
588.94        16730.99
589.30        16367.09
589.66        16192.86
590.02        15970.64
590.37        15798.89
590.73        15997.65
591.09        15889.34
591.44        15880.83
591.80        15864.47
592.16        15404.41
592.51        15533.77
592.87        15491.33
593.23        15476.06
593.58         15106.3
593.94        15338.63
594.30        15164.16
594.66           15215
595.01        14912.27
595.37         14807.5
595.73        15024.84
596.08        14447.32
596.44        14533.37
596.79        14408.17
597.15        14298.81
597.51         14796.2
597.86        14311.95
598.22        14264.56
598.58        14096.77
598.93        14267.56
599.29        14170.86
599.65         14208.6
600.00        14229.16
600.36        13959.59
600.71        13546.96
601.07        13517.94
601.43        13414.22
601.78        13547.82
602.14        13569.87
602.49        13606.02
602.85         13354.7
603.21        13632.89
603.56        13508.01
603.92        13368.59
604.27        12812.33
604.63        13065.45
604.99        13136.02
605.34        12843.14
605.70        12704.24
606.05        12477.87
606.41        12667.74
606.76        12694.34
607.12        11987.64
607.48        12226.17
607.83        11986.39
608.19        12303.91
608.54        12096.06
608.90        11863.65
609.25        11842.16
609.61         11926.6
609.96        11925.14
610.32        11747.98
610.67        11650.52
611.03        11773.13
611.38        11590.71
611.74        11768.19
612.09        11461.15
612.45         11264.2
612.80        11527.64
613.16        11508.45
613.51         11065.2
613.87        11412.87
614.22        10848.33
614.58         11345.4
614.93        10705.88
615.29        10579.79
615.64        10969.82
616.00        10536.42
616.35        10423.62
616.71        10367.59
617.06        10454.51
617.41           10268
617.77        10576.12
618.12        10394.32
618.48        10092.38
618.83        9824.798
619.19         9687.41
619.54        10114.32
619.90           10030
620.25         9474.57
620.60        10018.28
620.96        9864.809
621.31        9711.546
621.67         9465.35
622.02        9364.599
622.37         9676.23
622.73        9137.231
623.08        8852.922
623.44        9014.064
623.79        9223.923
624.14        8952.868
624.50        9005.473
624.85        8921.354
625.21        8653.158
625.56        8735.243
625.91        8638.867
626.27        8566.753
626.62        8503.673
626.97        8482.483
627.33        8184.357
627.68        8392.046
628.03        8227.388
628.39        8355.961
628.74        8203.165
629.09         8249.51
629.45        8006.683
629.80        8193.392
630.15        8061.286
630.51        7773.001
630.86        7798.213
631.21        7606.787
631.57        7404.606
631.92        7649.359
632.27        7720.418
632.63         7645.07
632.98        7350.152
633.33        7692.704
633.69        7714.719
634.04        7403.944
634.39        7138.673
634.74        7207.113
635.10        7201.116
635.45        7223.449
635.80        7365.863
636.15        6954.315
636.51        6990.179
636.86        6811.054
637.21        7146.245
637.56         6815.62
637.92        6465.314
638.27        6542.949
638.62        6460.189
638.97        6953.582
639.33        6657.029
639.68        6771.314
640.03        6718.611
640.38        6660.258
640.74        6322.614
641.09        6186.572
641.44         6442.92
641.79        6192.259
642.14         6188.34
642.50        6001.653
642.85        5949.923
643.20        6026.074
643.55        5817.454
643.90        6075.053
644.26        5530.738
644.61        5653.494
644.96        5551.021
645.31        5715.185
645.66        5769.558
646.01         5767.89
646.37        5606.848
646.72        5836.408
647.07        5659.732
647.42        5384.256
647.77        5351.612
648.12        5323.043
648.47        5284.943
648.83        5596.763
649.18        5088.496
649.53        5159.555
649.88        5189.296
650.23        5218.759
650.58        4919.441
650.93        4839.883
651.28        4983.851
651.64        4606.812
651.99        4973.789
652.34        4992.764
652.69        5078.689
653.04        4808.769
653.39        4758.896
653.74        4524.609
654.09        4487.917
654.44        4571.621
654.79        4305.463
655.14        4585.709
655.49        4200.716
655.85        4481.781
656.20        4378.777
656.55        4384.285
656.90        4211.073
657.25         4173.35
657.60        4091.328
657.95        4138.236
658.30        4053.902
658.65        4973.126
659.00        4062.593
659.35         4335.14
659.70        3821.517
660.05          3869.1
660.40        3713.887
660.75        3934.013
661.10        3776.241
661.45        3703.809
661.80        3485.438
662.15        3693.448
662.50        3657.749
662.85        3497.972
663.20        3541.537
663.55        3313.069
663.90        3401.076
664.25        3382.819
664.60        3262.605
664.95        3477.983
665.30        3224.222
665.65        3325.076
666.00         3227.35
666.35        3160.787
666.70        3133.215
667.05        3164.766
667.40        3301.403
667.74        3118.327
668.09        3000.994
668.44        2865.842
668.79        2965.846
669.14        3036.666
669.49        2907.286
669.84        2919.011
670.19        2939.309
670.54        2858.643
670.89        2763.659
671.24        2783.597
671.59        2697.743
671.93        2683.957
672.28        2764.507
672.63        2799.084
672.98        2596.725
673.33        2597.522
673.68        2692.924
674.03        2370.833
674.38        2673.083
674.72        2485.094
675.07        1619.358
675.42        2532.348
675.77        2525.731
676.12         2367.75
676.47        2454.121
676.82          2278.8
677.16        2275.428
677.51        2278.219
677.86        2250.244
678.21        2425.825
678.56         2206.84
678.90        1991.818
679.25        2123.582
679.60        2196.319
679.95        2073.981
680.30         2108.41
680.65        1911.371
680.99         2125.94
681.34        1721.574
681.69        1986.665
682.04        2191.147
682.38        1901.112
682.73        2025.742
683.08         2014.45
683.43        2135.684
683.78        2119.417
684.12        1993.786
684.47        1853.131
684.82        1798.393
685.17        1926.762
685.51        1724.052
685.86        1700.333
686.21        1871.531
686.55        1928.391
686.90        1873.021
687.25        1841.428
687.60        1709.553
687.94        1788.572
688.29        1576.457
688.64        1679.439
688.99        1626.234
689.33        1669.128
689.68        1808.148
690.03        1581.032
690.37        1604.168
690.72        1681.675
691.07        1631.089
691.41        1580.316
691.76          1436.6
692.11        1232.907
692.45        1206.344
692.80        1510.003
693.15        1429.605
693.49        1460.012
693.84        1648.943
694.19        1399.892
694.53        1596.575
694.88        1424.757
695.23        1319.952
695.57        1404.757
695.92        1400.349
696.26        1371.408
696.61        1300.396
696.96        1482.547
697.30         1284.74
697.65        1236.173
698.00        1392.034
698.34        1227.601
698.69        1225.502
699.03        1181.913
699.38        1185.658
699.72        1391.615
700.07        1144.118
700.42        1118.256
700.76        1115.247
701.11        1056.437
701.45        1156.175
701.80        1639.016
702.14        1095.826
702.49        1172.212
702.84         1161.52
703.18        1267.644
703.53        1184.927
703.87        1125.717
704.22        830.0219
704.56        469.2344
704.91        914.2818
705.25        1089.464
705.60        977.3128
705.94        1065.408
706.29        933.5176
706.63        917.7153
706.98        906.5187
707.32        973.9846
707.67        893.5026
708.01        947.7819
708.36        912.6619
708.70        909.0544
709.05        949.1065
709.39        859.5345
709.74        914.7535
710.08        808.1263
710.43        904.2813
710.77        809.8043
711.12         834.981
711.46        996.7162
711.81        864.5073
712.15        847.4211
712.49        893.4671
712.84        925.2882
713.18        916.3199
713.53        876.2037
713.87        765.8204
714.22        748.9243
714.56        711.9776
714.90        880.7123
715.25          892.15
715.59        744.6212
715.94        850.0092
716.28        760.6547
716.62        756.5944
716.97        704.0491
717.31        870.1173
717.66        945.4807
718.00        830.7902
718.34        734.1282
718.69        586.2691
719.03        697.5032
719.37         624.377
719.72        551.8932
720.06        845.4451
720.40        684.1071
720.75        665.1114
721.09        644.2911
721.43         656.331
721.78        497.2681
722.12        684.5552
722.46        1259.676
722.81        706.3941
723.15        574.4491
723.49        683.0001
723.84        629.4889
724.18        599.7852
724.52        645.1207
724.87        594.9675
725.21        620.3942
725.55        378.4396
725.89        376.8412
726.24        616.1168
726.58        614.0863
726.92        619.9273
727.27        979.0831
727.61        712.4918
727.95        489.9896
728.29        488.7381
728.64        600.7621
728.98        637.7172
729.32        687.8832
729.66        508.6718
730.01        502.7648
730.35        587.3886
730.69        526.4144
731.03        500.4727
731.37        483.3627
731.72        550.6442
732.06          529.58
732.40        314.4064
732.74        463.4024
733.08        368.9382
733.43        484.3303
733.77         579.103
734.11        455.8648
734.45         525.308
734.79        462.8268
735.14        559.3295
735.48        323.8495
735.82         464.364
736.16        331.0754
736.50        390.4651
736.84        480.6483
737.18        414.6465
737.53        497.0706
737.87        460.5578
738.21        463.9829
738.55        440.1714
738.89        407.7125
739.23        423.5303
739.57        367.2542
739.92        723.4028
740.26        465.4495
740.60        468.1045
740.94        385.9501
741.28        396.9625
741.62        403.3916
741.96        555.4493
742.30        323.3892
742.64        513.9005
742.98        344.6054
743.32        429.4288
743.67        278.2924
744.01         226.764
744.35        214.5937
744.69        323.0475
745.03        301.1081
745.37        313.3068
745.71        352.6734
746.05          231.04
746.39        461.1482
746.73        394.1454
747.07        278.2454
747.41         365.544
747.75         304.619
748.09        388.2625
748.43        381.4647
748.77        265.1502
749.11        186.1517
749.45        316.8653
749.79        395.1753
750.13        339.0183
750.47        323.7376
750.81        202.3275
751.15        190.7861
751.49        300.4064
751.83        219.1231
752.17        174.6589
752.51        310.2588
752.85        331.2787
753.19         409.812
753.53        47.78164
753.87        290.4605
754.21         362.787
754.54        137.9339
754.88        340.5046
755.22        501.8233
755.56        267.6844
755.90        318.1207
756.24        130.9856
756.58        278.3396
756.92        211.6559
757.26         279.637
757.60        379.7838
757.94        176.0114
758.27        139.1564
758.61        414.9353
758.95        280.4034
759.29        169.9277
759.63        181.3763
759.97        97.38148
760.31        243.8058
760.65        178.9954
760.98        158.9952
761.32        308.1358
761.66        129.3301
762.00        230.7954
762.34        69.83415
762.68        266.9658
763.01        247.7641
763.35        109.4793
763.69         213.748
764.03        66.74242
764.37        14.27777
764.70        111.8295
765.04        120.9596
765.38         94.4069
765.72        214.6348
766.06        183.5941
766.39        148.9855
766.73        154.3025
767.07        31.57799
767.41        163.4409
767.75       -105.6538
768.08        52.74246
768.42        259.4202
768.76       -220.5005
769.10        432.5647
769.43         392.108
769.77        224.0615
770.11       -78.30737
770.44       -103.5107
770.78       -7.313965
771.12         23.4621
771.46        49.63618
771.79        95.70287
772.13       -48.94751
772.47        214.5082
772.80          711.27
773.14          93.182
773.48        113.7878
773.82        80.27515
774.15        204.5753
774.49        54.34985
774.83        4.261313
775.16        105.2179
775.50        52.31535
775.84       -4.087402
776.17        112.5834
776.51       -10.69751
776.85        41.37805
777.18        59.65531
777.52       -8.587646
777.85        123.0595
778.19        14.58983
778.53        9.712541
778.86        182.3629
779.20        134.3345
779.54        84.15047
779.87        48.38501
780.21       -15.14429
780.54        195.8156
780.88         73.4528
781.22        17.77773
781.55       -39.89746
781.89        7.069275
782.22        96.58622
782.56        125.7927
782.89        34.71598
783.23        148.7176
783.57       -5.247681
783.90        33.20869
784.24        106.8728
784.57       -2.257568
784.91        93.05521
785.24       -26.90088
785.58       -3.917603
785.91        13.54185
786.25        30.32079
786.58        72.18364
786.92        -118.344
787.25       -9.960938
787.59        119.7195
787.92         73.0463
788.26       -25.91089
788.59        219.8652
788.93        34.29203
789.26        130.3874
789.60       -89.32056
789.93       -52.82739
790.27        56.39301
790.60        93.95935
790.94        17.58636
791.27        155.7637
791.61        338.6472
791.94       -695.9004
792.27        -50.9043
792.61        95.37865
792.94        10.22759
793.28        170.6789
793.61        49.55964
793.95       -284.9673
794.28       -9.124146
794.61        -151.074
794.95          24.345
795.28        89.65408
795.62        59.88192
795.95       -39.51758
796.28         15.8174
796.62       -64.57422
796.95        16.14977
797.28       -140.7173
797.62        44.98461
797.95        569.5533
798.29        21.28056
798.62        -74.8374
798.95       -53.50757
799.29        27.96286
799.62       -56.07739
799.95       -5.160889
800.29       -3.540894
800.62       -16.10083
800.95       -121.2542
801.29       -34.96753
801.62       -125.1676
801.95        86.82721
802.29        51.03159
802.62        -132.991
802.95        23.90347
803.28       -19.95764
803.62       -211.4075
803.95       -3.477661
804.28       -96.08423
804.61       -19.78101
804.95       -28.25085
805.28       -20.84094
805.61        68.29691
805.95       -216.5605
806.28       -89.69751
806.61        -12.4176
806.94        -44.3042
807.27         2.16848
807.61        -16.8374
807.94         280.312
808.27        181.8122
808.60        -17.9375
808.94       -48.49097
809.27        26.54981
809.60         92.1985
809.93       -97.36084
810.26       -97.94409
810.60       -33.78088
810.93        86.34702
811.26        80.40202
811.59       -139.7375
811.92        102.1873
812.25        131.3506
812.59         99.7577
812.92        47.14841
813.25        28.89892
813.58        212.0864
813.91       -2.194336
814.24       -181.6741
814.57          27.006
814.91        17.94546
815.24        33.82699
815.57       -202.9507
815.90         83.9826
816.23       -54.13428
816.56       -504.6807
816.89       -169.1909
817.22         14.0393
817.55       -79.53418
817.88       -125.0408
818.22        51.57051
818.55          5.9713
818.88       -60.38757
819.21       -87.06738
819.54       -4.330933
819.87       -91.89429
820.20       -102.8574
820.53       -51.83423
820.86       -187.2175
821.19       -222.5007
821.52        64.17194
821.85       -102.7742
822.18        137.2679
822.51        56.15746
822.84        18.52829
823.17        22.70253
823.50       -28.89758
823.83       -80.71411
824.16       -175.5107
824.49       -29.94421
824.82       -80.21753
825.15       -62.79419
825.48       -127.8542
825.81       -162.2343
826.14       -26.29761
826.47       -44.62756
826.80       -29.61096
827.13       -168.6909
827.46       -217.1409
827.79        -45.5874
828.12       -100.0675
828.45       -183.4873
828.78       -126.6741
829.10         22.4228
829.43        2.209655
829.76       -65.36401
830.09       -138.0342
830.42        -36.9209
830.75       -37.74414
831.08       -117.9141
831.41       -110.1776
831.74         8.38476
832.07       -31.32764
832.39       -48.13428
832.72       -4.214355
833.05        6.374447
833.38        -277.134
833.71        53.39588
834.04         5.89186
834.37        6.966211
834.69       -153.7642
835.02       -31.98755
835.35        91.29426
835.68        61.65744
836.01        27.69488
836.34         69.3716
836.66        153.8931
836.99       -142.6807
837.32        164.0943
837.65       -120.5408
837.98       -91.13757
838.30       -3.111084
838.63       -79.86743
838.96        -131.124
839.29        5.488405
839.61       -110.6276
839.94        31.01853
840.27       -27.56433
840.60       -61.59741
840.92       -240.4875
841.25        4.393677
841.58       -157.9075
841.91       -79.78418
842.23       -26.18433
842.56       -85.77429
842.89       -33.23096
843.22        -26.7876
843.54       -81.72095
843.87        58.68072
844.20       -22.48096
844.52       -43.57092
844.85       -99.96411
845.18       -74.83423
845.50        25.08087
845.83        -9.69751
846.16       -74.55078
846.48       -83.45752
846.81       -92.15759
847.14       -20.90759
847.46        -89.1842
847.79       -36.10095
848.12       -144.3909
848.44       -156.5374
848.77       -77.77393
849.09        151.4718
849.42       -175.9109
849.75       -77.11743
850.07       -81.79761
850.40        35.43432
850.73       -102.8774
851.05       -188.4473
851.38        1.085207
851.70        52.02674
852.03       -79.66089
852.35       -103.3374
852.68        37.87462
853.01       -81.33093
853.33        -26.6676
853.66       -21.48425
853.98       -18.05774
854.31       -74.47424
854.63       -57.20422
854.96       -49.89429
855.28       -209.7341
855.61        199.8496
855.93       -40.13086
856.26        94.23903
856.58       -165.2507
856.91       -158.6008
857.23       -88.12769
857.56       -206.4207
857.88       -173.1643
858.21       -342.1475
858.53        7.387039
858.86       -44.62756
859.18        322.0215
859.51       -10.43091
859.83       -102.6543
860.16         -8.7677
860.48        38.03663
860.81        -48.5376
861.13        5.841738
861.45       -39.16431
861.78      -0.2641602
862.10       -73.39429
862.43       -255.5708
862.75       -94.41089
863.08       -99.54736
863.40       -185.5975
863.72       -89.13086
864.05        57.45591
864.37       -91.97754
864.70       -160.3142
865.02       -334.4939
865.34       -82.55078
865.67       -127.7842
865.99       -206.4673
866.31       -109.7809
866.64        8.358459
866.96        19.32299
867.28        22.36384
867.61       -177.9207
867.93       -37.25439
868.25       -185.4009
868.58        20.54471
868.90       -219.2708
869.22       -152.2073
869.55       -22.12427
869.87       -132.4309
870.19       -254.0906
870.52       -91.02417
870.84        -104.231
871.16        56.18096
871.48       -207.1108
871.81        -134.114
872.13       -67.24414
872.45       -1.884277
872.77       -131.4143
873.10       -167.3508
873.42       -75.79419
873.74       -41.62756
874.06       -189.2676
874.39       -134.8309
874.71       -75.08423
875.03       -189.7407
875.35       -105.8108
875.68       -17.17761
876.00       -24.06763
876.32       -168.0376
876.64       -111.7341
876.96       -235.6106
877.28        310.5976
877.61         -69.271
877.93       -186.8708
878.25       -199.7708
878.57       -17.83093
878.89       -133.2876
879.21       -12.23083
879.54       -126.8976
879.86       -122.3708
880.18       -169.8975
880.50       -56.81421
880.82       -244.8774
881.14       -97.96069
881.46       -42.20752
881.79       -57.38086
882.11        20.41805
882.43        7.784459
882.75       -160.2908
883.07       -178.0508
883.39        -70.9043
883.71       -49.60095
884.03       -115.5876
884.35       -184.9142
884.67        -133.001
884.99       -80.96423
885.31       -158.5474
885.63       -168.7107
885.95        9.441556
886.28       -70.79077
886.60        -211.144
886.92       -150.3608
887.24       -2.570801
887.56       -85.06091
887.88       -95.87756
888.20       -107.2676
888.52       -40.01758
888.84       -139.0476
889.16       -70.96094
889.48       -56.85437
889.80       -103.5542
890.12       -75.12439
890.44        219.9566
890.76       -128.7009
891.07        83.41423
891.39       -61.28735
891.71        34.29505
892.03       -235.6475
892.35         59.2961
892.67       -50.26086
892.99       -79.71411
893.31        -68.2876
893.63       -41.52429
893.95       -202.3574
894.27       -53.87097
894.59       -99.91431
894.91       -21.83423
895.22       -130.2009
895.54        56.51946
895.86       -302.7607
896.18        -136.844
896.50       -104.1409
896.82       -162.2175
897.14       -244.6074
897.46       -65.40759
897.77       -76.36401
898.09       -53.00732
898.41       -192.2341
898.73       -49.51428
899.05       -54.46423
899.37       -122.5076
899.68       -157.5476
900.00       -150.3508
900.32       -122.1942
900.64       -150.9341
900.96       -100.9343
901.27       -268.2874
901.59       -136.9741
901.91       -32.52075
902.23        -108.481
902.55       -297.8108
902.86         307.381
903.18       -185.2742
903.50        -222.884
903.82       -647.4399
904.13       -67.79419
904.45       -13.97766
904.77       -82.18433
905.08       -70.60425
905.40       -113.6843
905.72       -152.0408
906.04       -141.9941
906.35        481.9942
906.67       -246.3042
906.99       -96.95764
907.30        -150.231
907.62       -279.8774
907.94       -130.8274
908.25       -34.34424
908.57       -148.8975
908.89       -180.0308
909.20        -62.8374
909.52        -79.0542
909.84        8.234824
910.15       -140.5776
910.47       -202.6174
910.79       -41.38098
911.10       -125.2441
911.42       -81.50427
911.74        15.46406
912.05       -117.4409
912.37       -133.1843
912.68       -150.7942
913.00       -81.86096
913.32       -238.9775
913.63       -237.8872
913.95       -103.9542
914.26       -267.2573
914.58       -146.3708
914.89       -240.7075
915.21       0.5612495
915.52       -85.15088
915.84        -80.1543
916.16       -182.6309
916.47       -93.39429
916.79       -284.4607
917.10       -160.1376
917.42        -129.001
917.73       -236.8774
918.05       -124.9042
918.36        -78.7041
918.68       -186.1576
918.99       -79.15417
919.31       -35.45764
919.62       -117.2909
919.94       -14.13745
920.25       -146.3643
920.57       -226.9307
920.88       -96.11755
921.19       -114.5908
921.51       -60.34094
921.82       -167.5374
922.14       -212.6443
922.45        -46.6709
922.77       -126.5376
923.08       -257.9375
923.39       -46.78088
923.71       -219.8708
924.02       -162.0376
924.34       -150.0043
924.65       -203.3809
924.96       -185.0042
925.28       -145.0542
925.59       -229.3574
925.91        46.33299
926.22       -86.97095
926.53        12.52933
926.85       -57.48755
927.16       -19.18433
927.47       -52.09094
927.79         91.4328
928.10       -47.77075
928.41       -110.7341
928.73       -10.23096
929.04       -104.8175
929.35        -150.314
929.67       -110.4109
929.98        7.178035
930.29        -23.9342
930.60       -193.1838
930.92        -51.8042
931.23       -102.0742
931.54       -55.01416
931.86         -21.271
932.17       -293.4006
932.48        -36.0144
932.79       -73.27429
933.11       -1037.607
933.42       -88.65759
933.73        73.90032
934.04       -32.25732
934.35       -39.02417
934.67       -68.48096
934.98       -165.9172
935.29       -130.9608
935.60       -226.6375
935.91       -235.1306
936.23       -191.1775
936.54       -144.6376
936.85       -217.3308
937.16       -155.6176
937.47       -110.6042
937.78       -53.43762
938.10       -82.93091
938.41       -128.3342
938.72       -181.5308
939.03       -160.9241
939.34       -122.9309
939.65       -137.7805
939.96       -227.9773
940.28       -36.14099
940.59           62.42
940.90       -130.1143
941.21        31.46297
941.52       -48.22754
941.83       -61.39758
942.14        62.96188
942.45       -121.7009
942.76       -159.1776
943.07       -103.3943
943.38       -154.1375
943.69       -161.5774
944.00       -186.3574
944.32       -115.0842
944.63         44.4814
944.94       -73.16418
945.25       -49.73438
945.56       -72.45764
945.87       -104.9109
946.18       -223.1475
946.49       -223.7275
946.80       -176.7709
947.11       -104.9742
947.42       -170.9241
947.73       -272.6741
948.04       -387.5474
948.35       -65.03076
948.65       -184.3408
948.96       -178.9075
949.27       -34.62427
949.58       -185.7241
949.89       -127.0376
950.20       -275.3542
950.51       -242.9641
950.82       -185.2009
951.13       -173.9175
951.44       -75.37769
951.75       -65.67102
952.06       -61.38098
952.37       -184.9573
952.67       -129.7109
952.98       -216.6506
953.29       -201.6941
953.60       -198.2576
953.91       -482.0571
954.22       -67.56091
954.53       -168.3676
954.84       -154.2109
955.14        -237.364
955.45       -159.0173
955.76       -43.29089
956.07       -194.9509
956.38       -174.1274
956.68       -142.4807
956.99        -269.854
957.30       -302.2375
957.61       -75.72095
957.92        -61.1344
958.22       -263.4841
958.53        4.302273
958.84       -145.4009
959.15       -194.7109
959.46       -301.1641
959.76       -173.5276
960.07       -165.2408
960.38       -48.58423
960.69       -167.4709
960.99      -0.3840332
961.30       -179.6143
961.61       -154.5376
961.91        -71.8075
962.22       -104.7007
962.53       -346.5972
962.83        -30.2373
963.14       -129.4209
963.45       -288.9607
963.76       -238.4072
964.06        -439.074
964.37       -426.4773
964.68       -198.3374
964.98        -300.864
965.29       -307.0774
965.59       -158.9442
965.90       -86.88428
966.21       -156.0273
966.51       -283.8776
966.82       -143.2876
967.13       -226.4976
967.43       -79.41418
967.74       -208.9807
968.04       -257.6809
968.35       -72.69092
968.66        7.369361
968.96       -213.4441
969.27       -95.23755
969.57       -226.0007
969.88         77.3101
970.18       -114.2407
970.49       -189.5273
970.80       -174.8042
971.10       -117.2209
971.41       -117.7743
971.71       -178.6475
972.02       -134.8508
972.32       -219.9573
972.63       -411.9172
972.93       -237.2007
973.24       -189.3909
973.54       -385.7542
973.85       -182.3274
974.15       -291.1475
974.46       -180.4175
974.76       -264.6008
975.07       -38.72754
975.37       -277.7839
975.67       -262.4675
975.98       -126.5842
976.28       -143.4041
976.59       -226.9641
976.89       -169.9742
977.20       -127.2773
977.50        91.56844
977.80       -76.11096
978.11       -166.4642
978.41       -95.30762
978.72       -136.8809
979.02       -253.1006
979.32       -220.5073
979.63       -270.6409
979.93       -348.6572
980.23       -238.9141
980.54        -218.144
980.84       -203.8474
981.14       -255.1941
981.45       -207.1973
981.75        -161.251
982.05       -276.8042
982.36       -318.4707
982.66       -149.2476
982.96       -305.8174
983.27       -193.9677
983.57       -122.6672
983.87       -160.3909
984.17       -371.2239
984.48       -239.0007
984.78       -270.0974
985.08       -410.8208
985.39       -303.2139
985.69       -530.1206
985.99       -337.2974
986.29       -202.2839
986.59       -216.3076
986.90       -296.8772
987.20       -258.0808
987.50       -270.9473
987.80       -215.8374
988.11       -548.1704
988.41       -210.3074
988.71       -230.8208
989.01        -364.124
989.31       -308.9272
989.61       -298.1306
989.92       -298.5942
990.22       -330.6575
990.52       -315.8308
990.82        83.14352
991.12       -278.1575
991.42        488.2962
991.72       -277.4807
992.03       -379.0908
992.33       -363.4873
992.63       -146.3875
992.93       -211.4141
993.23       -331.2307
993.53        -292.304
993.83       -277.1475
994.13       -361.7439
994.43       -425.9973
994.73       -456.0471
995.03       -287.4175
995.33       -412.7136
995.63       -167.8506
995.94       -145.3506
996.24       -416.2874
996.54        -475.814
996.84       -432.5671
997.14       -219.9041
997.44       -233.9907
997.74       -481.4041
998.04       -519.7107
998.34       -297.9172
998.64        -336.364
998.94        -509.554
999.23       -397.5039
999.53       -392.4006
999.83       -279.6475
1000.13       -221.5674
1000.43       -378.2439
1000.73       -523.1641
1001.03       -451.6641
1001.33       -443.4041
1001.63       -403.1707
1001.93       -464.4338
1002.23       -429.7473
1002.53       -360.2439
1002.83       -315.2441
1003.13       -533.1741
1003.42       -361.6807
1003.72       -376.8875
1004.02       -373.4473
1004.32       -593.0674
1004.62       -459.1106
1004.92       -351.9907
1005.22       -608.6638
1005.51       -399.6541
1005.81       -326.3975
1006.11       -153.1475
1006.41       -488.8774
1006.71       -791.7603
1007.00       -566.8872
1007.30       -539.6741
1007.60       -569.2871
1007.90        -429.804
1008.20       -475.6106
1008.49       -503.1074
1008.79       -659.1272
1009.09       -535.4373
1009.39       -479.1606
1009.68       -488.2104
1009.98       -606.2136
1010.28       -464.3071
1010.58       -585.7905
1010.87       -504.5308
1011.17       -681.0337
1011.47       -571.3005
1011.76       -703.3669
1012.06       -658.5471
1012.36       -674.6973
1012.65       -482.0537
1012.95       -559.7539
1013.25       -771.1802
1013.54       -631.4705
1013.84       -742.8806
1014.14       -786.2771
1014.43       -668.2871
1014.73       -647.0737
1015.03       -412.0571
1015.32       -766.1003
1015.62       -183.4104
1015.91       -638.3772
1016.21       -674.9604
1016.51       -777.1938
1016.80       -680.5571
1017.10       -671.5237
1017.39       -588.3938
1017.69       -723.8105
1017.98       -962.6335
1018.28       -740.6204
1018.57       -701.2039
1018.87       -745.3804
1019.17       -865.0503
1019.46        -1205.73
1019.76       -874.8535
